wavelength(nm)	 n			 k
206.667	 1.010	 1.343
207.358	 1.036	 1.338
208.054	 1.046	 1.331
208.754	 1.066	 1.323
209.459	 1.070	 1.339
210.169	 1.083	 1.343
210.884	 1.088	 1.343
211.604	 1.102	 1.346
212.329	 1.109	 1.348
213.058	 1.119	 1.348
213.793	 1.133	 1.352
214.533	 1.139	 1.359
215.278	 1.155	 1.356
216.028	 1.164	 1.359
216.783	 1.172	 1.363
217.544	 1.180	 1.366
218.310	 1.195	 1.372
219.081	 1.211	 1.371
219.858	 1.222	 1.377
220.641	 1.235	 1.382
221.429	 1.247	 1.385
222.222	 1.265	 1.388
223.022	 1.280	 1.389
223.827	 1.299	 1.392
224.638	 1.319	 1.390
225.455	 1.340	 1.387
226.277	 1.362	 1.384
227.106	 1.389	 1.375
227.941	 1.416	 1.368
228.782	 1.445	 1.353
229.630	 1.471	 1.340
230.483	 1.502	 1.319
231.343	 1.526	 1.302
232.210	 1.548	 1.284
233.083	 1.566	 1.267
233.962	 1.579	 1.254
234.848	 1.585	 1.245
235.741	 1.590	 1.240
236.641	 1.591	 1.240
237.548	 1.592	 1.241
238.462	 1.589	 1.243
239.382	 1.586	 1.257
240.310	 1.582	 1.269
241.245	 1.579	 1.280
242.188	 1.573	 1.298
243.137	 1.571	 1.314
244.094	 1.570	 1.330
245.059	 1.569	 1.349
246.032	 1.568	 1.369
247.012	 1.569	 1.389
248.000	 1.570	 1.411
248.996	 1.575	 1.430
250.000	 1.580	 1.451
251.012	 1.584	 1.475
252.033	 1.591	 1.498
253.061	 1.597	 1.522
254.098	 1.608	 1.542
255.144	 1.618	 1.568
256.198	 1.629	 1.592
257.261	 1.643	 1.616
258.333	 1.658	 1.641
259.414	 1.673	 1.667
260.504	 1.692	 1.694
261.603	 1.713	 1.723
262.712	 1.737	 1.749
263.830	 1.765	 1.777
264.957	 1.794	 1.807
266.094	 1.831	 1.835
267.241	 1.874	 1.861
268.398	 1.927	 1.883
269.565	 1.988	 1.902
270.742	 2.059	 1.913
271.930	 2.140	 1.916
273.128	 2.234	 1.908
274.336	 2.339	 1.889
275.556	 2.451	 1.860
276.786	 2.572	 1.822
278.027	 2.700	 1.772
279.279	 2.833	 1.714
280.543	 2.974	 1.648
281.818	 3.120	 1.573
283.105	 3.277	 1.488
284.404	 3.444	 1.393
285.714	 3.634	 1.273
287.037	 3.849	 1.124
288.372	 4.086	 0.926
289.720	 4.318	 0.695
291.080	 4.525	 0.448
292.453	 4.686	 0.214
293.839	 4.805	 0.005
295.238	 4.888	 0.176
296.651	 4.941	 0.326
298.077	 4.977	 0.454
299.517	 4.999	 0.562
300.971	 5.012	 0.655
302.439	 5.020	 0.736
303.922	 5.021	 0.803
305.419	 5.020	 0.864
306.931	 5.018	 0.918
308.458	 5.015	 0.965
310.000	 5.010	 1.006
311.558	 5.009	 1.047
313.131	 5.010	 1.084
314.721	 5.009	 1.117
316.327	 5.012	 1.150
317.949	 5.016	 1.181
319.588	 5.021	 1.210
321.244	 5.029	 1.240
322.917	 5.040	 1.271
324.607	 5.052	 1.302
326.316	 5.065	 1.331
328.042	 5.079	 1.361
329.787	 5.095	 1.391
331.551	 5.115	 1.423
333.333	 5.134	 1.453
335.135	 5.156	 1.484
336.957	 5.179	 1.513
338.798	 5.204	 1.544
340.659	 5.231	 1.573
342.541	 5.261	 1.602
344.444	 5.296	 1.633
346.369	 5.336	 1.664
348.315	 5.383	 1.696
350.282	 5.442	 1.735
352.273	 5.515	 1.779
354.286	 5.610	 1.836
356.322	 5.733	 1.914
358.381	 5.894	 2.030
360.465	 6.089	 2.197
362.573	 6.308	 2.423
364.706	 6.522	 2.699
366.864	 6.695	 2.997
369.048	 6.796	 3.272
371.257	 6.829	 3.507
373.494	 6.799	 3.693
375.758	 6.709	 3.810
378.049	 6.585	 3.871
380.368	 6.452	 3.894
382.716	 6.316	 3.890
385.093	 6.185	 3.869
387.500	 6.062	 3.841
389.937	 5.948	 3.809
392.405	 5.842	 3.774
394.904	 5.744	 3.739
397.436	 5.654	 3.704
400.000	 5.570	 3.665
402.597	 5.493	 3.633
405.229	 5.420	 3.600
407.895	 5.349	 3.561
410.596	 5.284	 3.531
413.333	 5.222	 3.502
416.107	 5.164	 3.471
418.919	 5.109	 3.440
421.769	 5.058	 3.415
424.658	 5.009	 3.393
427.586	 4.961	 3.364
430.556	 4.916	 3.339
433.566	 4.872	 3.314
436.620	 4.831	 3.285
439.716	 4.791	 3.268
442.857	 4.753	 3.246
446.043	 4.718	 3.231
449.275	 4.682	 3.205
452.555	 4.648	 3.193
455.882	 4.615	 3.171
459.259	 4.583	 3.149
462.687	 4.553	 3.127
466.165	 4.522	 3.103
469.697	 4.495	 3.094
473.282	 4.466	 3.073
476.923	 4.442	 3.077
480.620	 4.416	 3.056
484.375	 4.391	 3.046
488.189	 4.367	 3.032
492.063	 4.343	 3.017
496.000	 4.320	 3.003
500.000	 4.298	 2.988
504.065	 4.277	 2.978
508.197	 4.255	 2.958
512.397	 4.235	 2.952
516.667	 4.215	 2.938
521.008	 4.196	 2.927
525.424	 4.177	 2.916
529.915	 4.159	 2.910
534.483	 4.140	 2.896
539.130	 4.123	 2.881
543.860	 4.106	 2.872
548.673	 4.089	 2.860
553.571	 4.073	 2.857
558.559	 4.057	 2.842
563.636	 4.042	 2.835
568.807	 4.026	 2.823
574.074	 4.011	 2.815
579.439	 3.997	 2.807
584.906	 3.983	 2.795
590.476	 3.969	 2.785
596.154	 3.956	 2.778
601.942	 3.943	 2.770
607.843	 3.931	 2.762
613.861	 3.918	 2.753
620.000	 3.906	 2.746
626.263	 3.893	 2.737
632.653	 3.882	 2.732
639.175	 3.870	 2.724
645.833	 3.858	 2.716
652.632	 3.847	 2.709
659.574	 3.837	 2.702
666.667	 3.826	 2.695
673.913	 3.815	 2.688
681.319	 3.805	 2.681
688.889	 3.796	 2.675
696.629	 3.787	 2.669
704.545	 3.778	 2.663
712.644	 3.768	 2.657
720.930	 3.761	 2.652
729.412	 3.752	 2.646
738.095	 3.745	 2.641
746.988	 3.736	 2.635
756.098	 3.728	 2.630
765.432	 3.721	 2.625
775.000	 3.714	 2.621
784.810	 3.714	 2.621
794.872	 3.697	 2.609
805.195	 3.688	 2.604
815.789	 3.681	 2.599
826.667	 3.673	 2.594
